
vd                getData("/M0/D" ?resultsDir "/local/sergiomodeling2/aykutkabaoglu/sim/test/spectre/schematic" ?result "dc") (A)

 0.00000e+00       0.00000e+00      
 1.00000e-02       9.27374e-04      
 2.00000e-02       1.74346e-03      
 3.00000e-02       2.46545e-03      
 4.00000e-02       3.10729e-03      
 5.00000e-02       3.68038e-03      
 6.00000e-02       4.19410e-03      
 7.00000e-02       4.65624e-03      
 8.00000e-02       5.07332e-03      
 9.00000e-02       5.45081e-03      
 1.00000e-01       5.79336e-03      
 1.10000e-01       6.10492e-03      
 1.20000e-01       6.38889e-03      
 1.30000e-01       6.64817e-03      
 1.40000e-01       6.88310e-03      
 1.50000e-01       7.09398e-03      
 1.60000e-01       7.28433e-03      
 1.70000e-01       7.45700e-03      
 1.80000e-01       7.61438e-03      
 1.90000e-01       7.75840e-03      
 2.00000e-01       7.89073e-03      
 2.10000e-01       8.01273e-03      
 2.20000e-01       8.12559e-03      
 2.30000e-01       8.23031e-03      
 2.40000e-01       8.32775e-03      
 2.50000e-01       8.41865e-03      
 2.60000e-01       8.50368e-03      
 2.70000e-01       8.58338e-03      
 2.80000e-01       8.65825e-03      
 2.90000e-01       8.72874e-03      
 3.00000e-01       8.79522e-03      
 3.10000e-01       8.85803e-03      
 3.20000e-01       8.91749e-03      
 3.30000e-01       8.97385e-03      
 3.40000e-01       9.02737e-03      
 3.50000e-01       9.07826e-03      
 3.60000e-01       9.12672e-03      
 3.70000e-01       9.17292e-03      
 3.80000e-01       9.21703e-03      
 3.90000e-01       9.25918e-03      
 4.00000e-01       9.29952e-03      
 4.10000e-01       9.33817e-03      
 4.20000e-01       9.37523e-03      
 4.30000e-01       9.41080e-03      
 4.40000e-01       9.44498e-03      
 4.50000e-01       9.47786e-03      
 4.60000e-01       9.50950e-03      
 4.70000e-01       9.53999e-03      
 4.80000e-01       9.56939e-03      
 4.90000e-01       9.59776e-03      
 5.00000e-01       9.62516e-03      
 5.10000e-01       9.65164e-03      
 5.20000e-01       9.67725e-03      
 5.30000e-01       9.70203e-03      
 5.40000e-01       9.72604e-03      
 5.50000e-01       9.74930e-03      
 5.60000e-01       9.77186e-03      
 5.70000e-01       9.79375e-03      
 5.80000e-01       9.81500e-03      
 5.90000e-01       9.83565e-03      
 6.00000e-01       9.85571e-03      
 6.10000e-01       9.87522e-03      
 6.20000e-01       9.89421e-03      
 6.30000e-01       9.91269e-03      
 6.40000e-01       9.93069e-03      
 6.50000e-01       9.94823e-03      
 6.60000e-01       9.96533e-03      
 6.70000e-01       9.98201e-03      
 6.80000e-01       9.99828e-03      
 6.90000e-01       1.00142e-02      
 7.00000e-01       1.00297e-02      
 7.10000e-01       1.00448e-02      
 7.20000e-01       1.00597e-02      
 7.30000e-01       1.00741e-02      
 7.40000e-01       1.00883e-02      
 7.50000e-01       1.01022e-02      
 7.60000e-01       1.01157e-02      
 7.70000e-01       1.01290e-02      
 7.80000e-01       1.01420e-02      
 7.90000e-01       1.01548e-02      
 8.00000e-01       1.01673e-02      
 8.10000e-01       1.01795e-02      
 8.20000e-01       1.01915e-02      
 8.30000e-01       1.02033e-02      
 8.40000e-01       1.02149e-02      
 8.50000e-01       1.02262e-02      
 8.60000e-01       1.02374e-02      
 8.70000e-01       1.02483e-02      
 8.80000e-01       1.02591e-02      
 8.90000e-01       1.02697e-02      
 9.00000e-01       1.02801e-02      
 9.10000e-01       1.02903e-02      
 9.20000e-01       1.03003e-02      
 9.30000e-01       1.03102e-02      
 9.40000e-01       1.03199e-02      
 9.50000e-01       1.03295e-02      
 9.60000e-01       1.03389e-02      
 9.70000e-01       1.03482e-02      
 9.80000e-01       1.03573e-02      
 9.90000e-01       1.03663e-02      
 1.00000e+00       1.03752e-02      
 1.01000e+00       1.03840e-02      
 1.02000e+00       1.03926e-02      
 1.03000e+00       1.04011e-02      
 1.04000e+00       1.04094e-02      
 1.05000e+00       1.04177e-02      
 1.06000e+00       1.04258e-02      
 1.07000e+00       1.04339e-02      
 1.08000e+00       1.04418e-02      
 1.09000e+00       1.04496e-02      
 1.10000e+00       1.04574e-02      
 1.11000e+00       1.04650e-02      
 1.12000e+00       1.04725e-02      
 1.13000e+00       1.04800e-02      
 1.14000e+00       1.04873e-02      
 1.15000e+00       1.04946e-02      
 1.16000e+00       1.05018e-02      
 1.17000e+00       1.05088e-02      
 1.18000e+00       1.05159e-02      
 1.19000e+00       1.05228e-02      
 1.20000e+00       1.05296e-02      
 1.21000e+00       1.05364e-02      
 1.22000e+00       1.05431e-02      
 1.23000e+00       1.05498e-02      
 1.24000e+00       1.05563e-02      
 1.25000e+00       1.05628e-02      
 1.26000e+00       1.05692e-02      
 1.27000e+00       1.05756e-02      
 1.28000e+00       1.05819e-02      
 1.29000e+00       1.05881e-02      
 1.30000e+00       1.05943e-02      
 1.31000e+00       1.06004e-02      
 1.32000e+00       1.06064e-02      
 1.33000e+00       1.06124e-02      
 1.34000e+00       1.06183e-02      
 1.35000e+00       1.06242e-02      
 1.36000e+00       1.06300e-02      
 1.37000e+00       1.06358e-02      
 1.38000e+00       1.06415e-02      
 1.39000e+00       1.06472e-02      
 1.40000e+00       1.06528e-02      
 1.41000e+00       1.06584e-02      
 1.42000e+00       1.06639e-02      
 1.43000e+00       1.06694e-02      
 1.44000e+00       1.06748e-02      
 1.45000e+00       1.06802e-02      
 1.46000e+00       1.06856e-02      
 1.47000e+00       1.06909e-02      
 1.48000e+00       1.06961e-02      
 1.49000e+00       1.07013e-02      
 1.50000e+00       1.07065e-02      
 1.51000e+00       1.07116e-02      
 1.52000e+00       1.07167e-02      
 1.53000e+00       1.07218e-02      
 1.54000e+00       1.07268e-02      
 1.55000e+00       1.07318e-02      
 1.56000e+00       1.07367e-02      
 1.57000e+00       1.07416e-02      
 1.58000e+00       1.07465e-02      
 1.59000e+00       1.07514e-02      
 1.60000e+00       1.07562e-02      
 1.61000e+00       1.07610e-02      
 1.62000e+00       1.07657e-02      
 1.63000e+00       1.07704e-02      
 1.64000e+00       1.07751e-02      
 1.65000e+00       1.07797e-02      
 1.66000e+00       1.07844e-02      
 1.67000e+00       1.07890e-02      
 1.68000e+00       1.07935e-02      
 1.69000e+00       1.07980e-02      
 1.70000e+00       1.08026e-02      
 1.71000e+00       1.08070e-02      
 1.72000e+00       1.08115e-02      
 1.73000e+00       1.08159e-02      
 1.74000e+00       1.08203e-02      
 1.75000e+00       1.08247e-02      
 1.76000e+00       1.08290e-02      
 1.77000e+00       1.08334e-02      
 1.78000e+00       1.08377e-02      
 1.79000e+00       1.08419e-02      
 1.80000e+00       1.08462e-02      
